S,call,delta,gamma,Vega,theta,rho
1,0.0001273784505505409,0.00025151768688613796,0.0002485125527639052,9.320844205105506e-06,-0.0005299821941983501,3.103483097816268e-05
2,0.0005032151836517227,0.0005002074709298254,0.0002488300722316549,3.7331012502170996e-05,-0.002106280091746654,0.0001243000771972494
3,0.0011278717410934285,0.0007491360071339159,0.00024901320662363766,8.405659659852308e-05,-0.0047209371611608986,0.00027988385270429766
4,0.0020015371358462104,0.00099821863015076,0.0002491419689391178,0.00014951122006244544,-0.008369665681004501,0.0004978321870843447
5,0.0031243420842365275,0.001247409901067309,0.00024924116846791744,0.00023370429731630477,-0.01304943778902834,0.0007781768929758514
6,0.004496386671605212,0.0014966902283503059,0.00024932178069488053,0.00033664303365332077,-0.018757916747658143,0.0011209423255928441
7,0.006117751985405118,0.0017460531284707592,0.0002493896283321112,0.00045833326490010706,-0.025493194708015032,0.001526148215051301
8,0.00798850615685351,0.001995467072829493,0.00024944816967228944,0.0005987798911734343,-0.03325364671125097,0.0019938111241006584
9,0.010108707911047966,0.0022449445948036217,0.0002494996293941898,0.0007579871361563378,-0.042037868151767466,0.0025239453297319636
10,0.012478408832901414,0.0024944704288265562,0.0002495455202373986,0.0009359587090345539,-0.051844608814355375,0.0031165633822792522
11,0.015097654902485361,0.002744031998153096,0.00024958691974275027,0.001132697914803249,-0.06267277270072258,0.0037716764598669235
12,0.01796648758364864,0.002993641272375225,0.0002496246187533302,0.001348207734255119,-0.07452133840568642,0.004489294633085172
13,0.021084944623968763,0.0032432860216924375,0.0002496592159395572,0.0015824908779216162,-0.08738938045427247,0.005269427093106127
14,0.024453060659815923,0.0034929600878363942,0.0002496911810645486,0.0018355498351482757,-0.10127607537324668,0.006112082224715708
15,0.028070867685071398,0.003742670756645694,0.00024972087717123337,0.002107386899985464,-0.11618052075945684,0.007017267823067329
16,0.031938395421581625,0.003992390099072374,0.00024974860457493975,0.0023980042141574787,-0.13210219168557913,0.007984991126988583
17,0.03605567161701507,0.004242179871272178,0.00024977460065522816,0.0027074037678778695,-0.14904025097406404,0.009015258824879302
18,0.040422722287901044,0.004491950908458442,0.0002497990726074706,0.003035587427743791,-0.16699407204279204,0.010108077291154371
19,0.04503957192052247,0.004741748660386236,0.0002498221939040146,0.00338255695526285,-0.18596314765861877,0.011263452433935004
20,0.04990624363886342,0.004991591515124405,0.00024984408222850085,0.0037483140028979345,-0.20594668331819221,0.012481389855684142
21,0.05502275934642587,0.005241436798475441,0.00024986487379141664,0.004132860150392326,-0.22694432999514902,0.013761894951391794
22,0.060389139847076674,0.005491310184346787,0.0002498846752435613,0.004536196887387767,-0.24895558392579176,0.01510497270526545
23,0.0660054049488482,0.005741194325503685,0.0002499035790803905,0.004958325635837091,-0.2719797748129693,0.016510627974530845
24,0.071871573553754,0.005991154100604135,0.0002499216378293312,0.005399247750004221,-0.2960165529364289,0.017978865280571243
25,0.07798766373602174,0.006241037547871642,0.0002499389518961781,0.0058589645297868476,-0.3210653909402339,0.019509689076074865
26,0.08435369281064857,0.006490965404060134,0.0002499555563917344,0.0063374772160673665,-0.3471259224507861,0.021103103547276403
27,0.09096967739380972,0.006740941138616563,0.0002499715201498276,0.006834786998796694,-0.3741976312143791,0.022759112711795423
28,0.0978356334563597,0.006990911322057869,0.0002499868857752663,0.00735089503031694,-0.4022801841641055,0.0244777204630453
29,0.1049515763714399,0.007240928689977721,0.0002500017112772035,0.007885802404822284,-0.43137318717079154,0.026258930503619823
30,0.11231752095702376,0.007490998099601853,0.00025001600539864555,0.008439510189861554,-0.4614762738608391,0.02810274646047883
31,0.11993348151409705,0.007741007140849021,0.0002500298194874073,0.009012019411697159,-0.492588995981702,0.030009171841233192
32,0.12779947186104854,0.007990991202078135,0.00025004318893184774,0.009603331054541808,-0.5247110551609424,0.031978209864835794
33,0.13591550536477218,0.008241061999481047,0.0002500561496754372,0.010213446103302104,-0.5578422779262127,0.034009863926487416
34,0.14428159496896556,0.008491106429087125,0.00025006866993804167,0.010842365464058812,-0.5919819551225558,0.03610413713411864
35,0.15289775322014085,0.008741174450932476,0.00025008084991728907,0.011490090127685981,-0.6271301672411411,0.03826103249088275
36,0.16176399229235405,0.00899128271836247,0.0002500926662984959,0.01215662115125471,-0.6632863036593051,0.0404805529888308
37,0.17088032401279865,0.009241427068040764,0.0002501041793112613,0.01284196001982707,-0.7004502478036301,0.04276270165193274
38,0.18024675989384306,0.009491518682125388,0.0002501154217071644,0.013546109440265575,-0.738621519502658,0.045107481481954086
39,0.18986331118540323,0.009741620010661478,0.00025012651116984586,0.014269075435946466,-0.7778000937763707,0.04751489599413849
40,0.19972998898087285,0.00999172550253391,0.00025013763782499865,0.015010872452814183,-0.8179852933887233,0.04998495019142845
41,0.2098468044518799,0.010241835157742685,0.0002501493115425468,0.01577153514981111,-0.8591773736910113,0.05251765231722993
42,0.22021376937329204,0.010492054447475141,0.00025016266946842336,0.01655114390389234,-0.9013759683096367,0.05511301882504815
43,0.23083089726681066,0.010742227940507831,0.00025017992733022965,0.017349877637767852,-0.9445807358510194,0.057771084095714624
44,0.2416982057980843,0.010992431964673699,0.0002502058474296298,0.018168117607020307,-0.988792514533543,0.06049192127766111
45,0.2528157215973013,0.011242634601060786,0.00025024937178041995,0.01900664205023439,-1.0340113931750494,0.06327568178587928
46,0.26418348956172266,0.011492964913095705,0.0002503272938936263,0.019866975584925672,-1.0802391758879537,0.06612266900962727
47,0.2758015901052592,0.011743389594087716,0.00025046975160591956,0.020751989702749718,-1.1274789213366887,0.0690334718861374
48,0.2876701699450776,0.011993897541806575,0.00025072861065122964,0.021666893993965708,-1.175737057712567,0.07200919221739266
49,0.2997894950800091,0.01224482459871723,0.00025119043456367507,0.022620808781126378,-1.2250239933564444,0.07505182200440164
50,0.31216003883656324,0.012496331747158251,0.0002519946074031054,0.023629167469896295,-1.2753578582103131,0.07816484838274462
51,0.32478262340543385,0.01274900740533269,0.00025335882447574676,0.024717253101491643,-1.3267692000606957,0.0813541827571207
52,0.3376586402353122,0.013003356724716753,0.0002556122791208537,0.025925220509259717,-1.3793050201993395,0.08462955230492675
53,0.3507903829029503,0.013260839648587819,0.0002592388864686157,0.02731497984576059,-1.4330406084006597,0.08800650591056501
54,0.3641815353342289,0.013522705177848593,0.0002649296393375522,0.028979305314036363,-1.4880864318556064,0.091509226746167
55,0.3778378679433365,0.013791440212074235,0.0002736444681961103,0.031053471482300754,-1.5446039725031113,0.09517435038963738
56,0.3917682035401684,0.01407126082320076,0.0002866825138392315,0.03372959525432817,-1.6028247451504996,0.09905599667459074
57,0.40598572261941807,0.014366893785755508,0.0003057567593556243,0.03727366952421818,-1.6630669785744345,0.1032322074656644
58,0.42050968257684285,0.01468546118044145,0.000333069433144928,0.04204501382193415,-1.7257616446997304,0.10781294399742068
59,0.4353676260904659,0.015036791256584081,0.0003713835577956459,0.048517550149951294,-1.791477211021686,0.11294972714626093
60,0.45059814899595524,0.0154331381008177,0.00042408191125442585,0.05730195600683885,-1.8609459195850775,0.1188469131663261
61,0.4662542863326073,0.015891049587324346,0.000495206796125025,0.06916738505419184,-1.9350897384473598,0.12577446857897634
62,0.48240755608860736,0.01643122027328303,0.0005894743215772991,0.08506111365075286,-2.0150450696920785,0.1340819712397634
63,0.4991526733332025,0.017079473946246537,0.0007122525730318685,0.10612421013328488,-2.1021792862008226,0.14421339192827176
64,0.5166129133603671,0.01786718550889077,0.000869501128875072,0.1337011768415275,-2.1981031550488694,0.15672206832850755
65,0.5349460623857983,0.018832224668585695,0.0010676651596153164,0.16934151207403936,-2.3046729413778166,0.17228511678402111
66,0.5543508501519215,0.02001836474363472,0.0013135241794248742,0.21479130993262707,-2.4239779405910156,0.19171642015036736
67,0.5750737130419497,0.02147724220691316,0.0016139956737770689,0.2719733660999646,-2.558318290546424,0.21597723542376987
68,0.5974156919767314,0.023266910620378667,0.0019758994518337403,0.34295478095525134,-2.7101633826021043,0.24618344637850062
69,0.621739229689247,0.02545175181722925,0.0024056890690626886,0.42990172254675496,-2.882098970591329,0.2836085136237454
70,0.6484746001308929,0.02810279786658043,0.0029091624353938528,0.5350217897487353,-3.076753518627129,0.32968127452459584
71,0.6781256816440323,0.0312964043569508,0.0034911645596658047,0.6604952450700585,-3.2967184537824323,0.38597791240935203
72,0.7112747774579468,0.035112490692768006,0.00415529572861395,0.8083972064520939,-3.5444514767668522,0.4542076346980561
73,0.7485861935757963,0.039634917570197103,0.004903642453202295,0.9806136325840598,-3.8221744547151104,0.5361918706370261
74,0.7908083058417542,0.04494806193910961,0.005736544640422281,1.1787545458863402,-4.131769315574019,0.6338371092318162
75,0.8387738845379691,0.051135728984519346,0.00665241305486397,1.4040683619975791,-4.474673542809171,0.7491018059857523
76,0.8933984949075854,0.05827947013870016,0.007647607749294849,1.6573613957510114,-4.85178039966172,0.8839581096764525
77,0.9556768532892218,0.06645544115002622,0.008716388113505502,1.938926571580235,-5.263359348361973,1.0403494351329812
78,1.0266770881092602,0.07573398574933776,0.009850935176469733,2.2484850822346303,-5.708975403528882,1.2201451689342058
79,1.1075329293228917,0.0861760995896077,0.011041451579707484,2.585144226575631,-6.187446377481365,1.42509395724133
80,1.1994339252666806,0.09783190924039786,0.012276332843619286,2.947373953079424,-6.696810395112607,1.65677715687762
81,1.3036138585096413,0.11073894023994058,0.013542407286681879,3.3330037851952987,-7.234324517213508,1.916564064352588
82,1.4213375986205485,0.12492215040182941,0.014825231076098788,3.739240859956805,-7.796484724487129,2.2055704909096363
83,1.5538866866998793,0.1403903771013404,0.016109429139543607,4.162708839178242,-8.379076898989979,2.524622151989231
84,1.702543991559967,0.15713571555053818,0.017379068282252774,4.599506504637807,-8.977246057639832,2.874224145399395
85,1.8685778088089657,0.17513782646361165,0.01861804540537193,5.045283983732274,-9.585586102645038,3.2545375730164134
86,2.0532257908222973,0.19435699716296995,0.019810480198501068,5.495333812046699,-10.198260635974066,3.6653640655526227
87,2.257679097483095,0.21473858247134103,0.020941091660731104,5.944693466810591,-10.809116490761994,4.106138695236794
88,2.4830671451973156,0.23621380407234938,0.021995552850206934,6.388255611278204,-11.411827038898537,4.575931422090562
89,2.7304433062607276,0.25869926201238513,0.02296080706010173,6.820882095517344,-12.000026483605097,5.073456939896914
90,3.0007718739260985,0.2821013866949329,0.023825335664362512,7.237517756599754,-12.567453033796028,5.597092483222709
91,3.2949165626478494,0.3063137743453126,0.024579377564393212,7.633300236815632,-13.108074625733934,6.144902922167183
92,3.6136307603738307,0.3312209617689632,0.025215088856889167,8.00366237045047,-13.616231298030357,6.714672234009455
93,3.9575496929178113,0.35670266740339684,0.025726643562151708,8.34442415390546,-14.08672494207508,7.3039403173824615
94,4.327184601863053,0.38263077151157177,0.026110278552593513,8.651871868319283,-14.514936186316163,7.910043942427335
95,4.722918979442552,0.40888066266120404,0.026364278680190978,8.922822540364805,-14.8968945623551,8.530160620789928
96,5.145006848498729,0.43531622750947463,0.026488914874889247,9.154672571454192,-15.229337879674176,9.161354137088296
97,5.593573024709806,0.46181418689172915,0.026486335347186696,9.345429999862986,-15.509754724973845,9.800620525979298
98,6.0686152531841495,0.4882475312939505,0.02636042102821534,9.493730463558947,-15.736403202737392,10.444933327535821
99,6.570008073288311,0.5144955572689014,0.026116605402748405,9.598837476771926,-15.90832132691844,11.091287110076562
100,7.09750823482739,0.5404421798971271,0.025761671382795726,9.660628102259317,-16.025288029908324,11.736738316381333
101,7.65076146571084,0.5659840596194954,0.025303544290977698,9.679565486302444,-16.087816323562265,12.378442690552658
102,8.229310375968334,0.5910223421778937,0.024751060010430592,9.6566600114123,-16.097087929267673,13.013688665974852
103,8.832603275083503,0.6154605713959427,0.02411374115496301,9.593421021341086,-16.054906204487907,13.639926288444569
104,9.460003678535971,0.6392220086581801,0.023401584545723608,9.491801173933112,-15.963617627789972,14.254791369161522
105,10.110800284435951,0.6622400405831286,0.022624843012408746,9.354135503913952,-15.82605442251861,14.85612475384812
106,10.7842172113416,0.6844548039453002,0.021793835109917836,9.183077219336866,-15.645441386880066,15.441986722741772
107,11.479424302838083,0.7058154949390882,0.020918769525479775,8.981532143712556,-15.425310984085172,16.01066662315631
108,12.195547322272672,0.7262806356322926,0.02000958549075449,8.752593549425924,-15.169450762186898,16.56068799222865
109,12.931677881245239,0.7458250017577939,0.01907582102944616,8.499478921208947,-14.881798904298194,17.09080949900965
110,13.68688296716211,0.7644257671302057,0.018126495948678212,8.225469965799093,-14.566382944281031,17.600022069164112
111,14.460213957556597,0.7820761815935384,0.01717002986012517,7.933856939192907,-14.22725279809356,18.087542654043887
112,15.250715031253371,0.7987654981889136,0.016214165459160768,7.627888119223769,-13.868408288431056,18.552805087335145
113,16.05743090817654,0.8145059737785232,0.015265923636320622,7.310725015692299,-13.493758643789988,18.995448524350422
114,16.879413870187626,0.8293026709793594,0.014331581041915342,6.98540368432532,-13.107064589235051,19.41530394642399
115,17.715730034383146,0.8431731757241323,0.013416651398756585,6.65480230551907,-12.71188985185745,19.812379157890803
116,18.56546486749915,0.8561423570085935,0.01252589349576283,6.321615013327175,-12.311603114767422,20.186842762903723
117,19.42772794527929,0.8682352614641786,0.011663322894150951,5.98833179406455,-11.909305541735193,20.539007504360995
118,20.30165697375334,0.8794858175065201,0.010832251753356559,5.6572241549623925,-11.507847830216633,20.869313314797466
119,21.186421100332627,0.8899137426965353,0.010035311355238719,5.330336156976756,-11.109804631814768,21.17831046195562
120,22.081223551491597,0.8995650446763648,0.00927450614085501,5.0094803331290905,-10.717463894138746,21.46664301569956
121,22.985303640670598,0.9084740071330089,0.008551258865452382,4.696237955563731,-10.332852085070954,21.735032891889713
122,23.897938195037366,0.9166821968165095,0.00786646275230396,4.391963096157525,-9.957694402373818,21.984264714269838
123,24.818442453048945,0.9242191012504009,0.0072205363821353785,4.097789905177507,-9.593465577495408,22.215171538420005
124,25.746170486543292,0.931134458426186,0.006613472756100691,3.8146425490204194,-9.241375309443356,22.42862170369619
125,26.680515201559114,0.9374547360607721,0.00604490153932602,3.5432472568608375,-8.90239917339386,22.625506738727093
126,27.620907971427208,0.9432353564875484,0.005514141143692086,3.284145968009966,-8.577281818133997,22.80673046257675
127,28.566817954086527,0.9485010110665826,0.005020233153629761,3.0377111093748965,-8.266556861258323,22.973199270914787
128,29.517751143245274,0.9532895361985538,0.004562005955222048,2.8041610668161354,-7.970578153049246,23.125813578239725
129,30.47324920009719,0.9576361037488823,0.004138114455543018,2.583575982626485,-7.689514092135141,23.265460437293935
130,31.432888108972193,0.9615796159323509,0.003747073513693522,2.375913537360219,-7.423390258054496,23.393007222161085
131,32.39627669669365,0.9651412113953484,0.003387299898349738,2.181024450358393,-7.172091898155486,23.50929638410548
132,33.36305505164952,0.9683610358024453,0.0030571417397595724,1.9986674538330362,-6.935408691788325,23.61514115634122
133,34.332892874767325,0.9712639581493931,0.0027549090475531557,1.828523570530649,-6.713002420610792,23.711322186770186
134,35.30548779080251,0.9738791106883582,0.0024788948849163717,1.6702095381049276,-6.504466654178032,23.79858496546205
135,36.28056364467612,0.9762310071437241,0.0022274002020594708,1.5232902948270066,-6.309333855369914,23.87763799198694
136,37.25786880408581,0.978340253254828,0.001998754868282049,1.387290437548927,-6.1270881701602775,23.94915160834898
137,38.23717448631004,0.9802352707311002,0.001791317032484585,1.2617046350626993,-5.957151216762213,24.01375740888056
138,39.218273124051734,0.9819313362413595,0.0016035114214218993,1.1460069709201548,-5.7989410606751335,24.072048170609147
139,40.200976782356705,0.9834483449822073,0.001433810083995013,1.0396592329087184,-5.651843082432606,24.124578148843053
140,41.1851156360855,0.9848033499793019,0.0012807553417815143,0.942118174336315,-5.515231293884426,24.171863788424726
141,42.17053651513601,0.9860183780574516,0.0011429654023231706,0.852841795904169,-5.3884846806795395,24.214384747978098
142,43.15710152259404,0.9870962713875997,0.0010191379828938807,0.7712946969817835,-5.270992886607928,24.252585069106654
143,44.14468672922231,0.9880629647796013,0.0009080447682663362,0.6969525573907731,-5.162139160574952,24.28687466284884
144,45.133180946173745,0.9889131291629383,0.0008085373792710016,0.629305821462367,-5.061327357225309,24.317630789738583
145,46.12248457651966,0.9896801600461913,0.0007195458096020957,0.5678626535043918,-4.9680082270242565,24.34519980738514
146,47.112508545099075,0.9903587283588422,0.0006400751573210073,0.5121512318240207,-4.881608361984036,24.36989880294504
147,48.103173305294945,0.9909616238701346,0.0005692091775699737,0.4617214571567274,-4.801599118309241,24.392017416374753
148,49.09440792062902,0.9914984389070014,0.0005061021113306197,0.41614614413987283,-4.727500169110499,24.411819520508967
149,50.08614921849466,0.9919773447109037,0.000449973214244892,0.3750217537756839,-4.6588255031565495,24.429545035076213
150,51.07834101291855,0.9923990518245773,0.0004001181963531053,0.3379687452920166,-4.595127478523864,24.445411609619324
151,52.07093339293296,0.9927784816454732,0.0003558802319503229,0.30463158712024097,-4.535986874998343,24.45961624211179
152,53.06388207292657,0.9931067523893944,0.00031667497069065575,0.2746784958063131,-4.481017157331735,24.472336939140856
153,54.05714780122712,0.9934073119666209,0.0002819595579239831,0.2478009409045967,-4.429831079733049,24.48373421373162
154,55.05069582311524,0.9936819367339922,0.0002512514640784502,0.22371297195178386,-4.3821223982831725,24.493952497550705
155,56.044495394486965,0.9939231659927827,0.00022411207112327247,0.2021503892990495,-4.337560710609978,24.50312159218981
156,57.03851934244121,0.9941281575720495,0.0002001451093747164,0.1828698179906496,-4.295868905046518,24.511357910839134
157,58.03274366917276,0.9943203593820726,0.00017899431270507193,0.1656476900180337,-4.256755659071132,24.518765673064987
158,59.02714719568169,0.9944862711108726,0.0001603360288982003,0.15027918024657083,-4.219990046294697,24.525438100653215
159,60.021711241966244,0.994633353457175,0.0001438895935734763,0.13657711033232545,-4.185361746067429,24.531458361565225
160,61.016419340538455,0.994769422391073,0.0001293965112836304,0.12437083888983125,-4.152634858201054,24.53690062615976
161,62.01125698027905,0.9949022938826602,0.00011663161103570019,0.11350515908503667,-4.121662300349271,24.541830893554103
162,63.00621137784132,0.9950170465344854,0.00010538919070768316,0.10383921154044629,-4.0922479627170105,24.5463078375252
