S,call,delta,gamma,Vega,theta,rho
1,0.002134953739684808,0.0034530525791151567,0.002133003855191856,8.000092426843283e-05,-0.00917567940031394,0.000329524751105717
2,0.0065511483545632855,0.005298801284900345,0.0016369579631820425,0.0002455852696160374,-0.027863171318809332,0.0010116135570718832
3,0.012623647824408158,0.006807408543113569,0.001402116401542225,0.0004732946983204006,-0.05335315817617259,0.0019496441943517293
4,0.020105328657446787,0.00813174545061246,0.0012562106804434037,0.0007538546492949494,-0.08458836096847389,0.003105413754964092
5,0.0288467324280829,0.009334001106753309,0.0011535704681764347,0.0010816564254521877,-0.12093323460693473,0.004455818853645044
6,0.038743758201749384,0.010447139334179845,0.001075960245761065,0.001452793692430232,-0.16194702315286413,0.0059847682018498985
7,0.049718068693587934,0.01149124233268406,0.0010144269557005314,0.0018643270242868493,-0.20729917296624656,0.007680153336908634
8,0.06170772178563805,0.012479662442332895,0.0009639742370309845,0.002313932277557551,-0.2567290484367657,0.009532400209802394
9,0.07466201445686298,0.013421852518291644,0.000921557263000583,0.002799707079226277,-0.3100237983000298,0.011533672161084805
10,0.08853836653941605,0.01432479135310416,0.0008851968850975833,0.0033200538729349915,-0.36700510824827504,0.013677388098487507
11,0.10330030596473261,0.015193817731740111,0.0008535414719457179,0.003873604302456757,-0.42752040935178925,0.015957911143893444
12,0.11891609787884846,0.016033119970559895,0.0008256311320731236,0.004459167773987471,-0.4914372700448588,0.018370336601902792
13,0.13535777363984425,0.016846084249788618,0.0008007621812855525,0.00507569501193017,-0.5586390933176588,0.020910341921864806
14,0.15260042037143098,0.017635472249200035,0.0007784049751990985,0.005722251399803424,-0.6290222787086464,0.02357407695441349
15,0.17062164704221539,0.018403602253247442,0.0007581519290145167,0.006397996938078965,-0.7024935883004346,0.026358081235688943
16,0.18940117407489437,0.01915237968219685,0.0007396834222905824,0.007102170866135626,-0.7789690087411927,0.029259220690747153
17,0.2089205117941049,0.019883475421700325,0.0007227446302549012,0.007834079568391772,-0.8583718624777248,0.032274637916385185
18,0.22916270427565813,0.020598329986132313,0.0007071294616523005,0.008593086974623132,-0.9406317225124639,0.0354017125517303
19,0.25011212232793706,0.021298129926350384,0.0006926691648034833,0.009378606795062971,-1.0256840432543157,0.03863802927051019
20,0.2717542940429097,0.021984022935406244,0.0006792240153652429,0.010190096166318163,-1.1134690169889438,0.04198135166721961
21,0.29407576452773077,0.022656868048365197,0.00066667704579082,0.011027050370870928,-1.203930910520512,0.04542960042874799
22,0.31706397861816016,0.023317611730355736,0.0006549296405200522,0.011888998450448884,-1.2970180707227996,0.048980835340439725
23,0.3407071819183063,0.02396699783080436,0.0006438978233935799,0.012775499496353593,-1.3926819919518607,0.05263324007742653
24,0.3649943366187507,0.024605628645701927,0.0006335096347509506,0.013686139470614478,-1.4908770606947286,0.05638510885419556
25,0.38991504935338367,0.025234159206632967,0.0006237029470668176,0.014620528522302223,-1.5915606332850274,0.0602348356082416
26,0.4154595089539773,0.02585321401404883,0.0006144238506866628,0.015578298643015298,-1.694692214337934,0.0641809042412067
27,0.4416184324110564,0.026463195523795946,0.0006056252505048931,0.016559101633228934,-1.8002337343059338,0.06822188017563402
28,0.46838301769145346,0.02706465052071394,0.0005972658279063126,0.01756260734259163,-1.908148944407273,0.0723564034271762
29,0.4957449023257354,0.02765780660052286,0.0005893090715414218,0.018588502095906456,-2.018403411074843,0.076583181524148
30,0.5236961268829405,0.02824329103923162,0.0005817227111126755,0.019636487368912547,-2.130964626978482,0.08090098477797625
31,0.5522291026103401,0.02882141747484468,0.0005744779796312827,0.020706278509030618,-2.2458016890603005,0.08530864047950891
32,0.5813365826427577,0.029392360767488412,0.0005675492320555975,0.021797603723672232,-2.3628843659473375,0.08980502879674111
33,0.6110116362872982,0.029956681579790256,0.0005609133812978229,0.022910203031911713,-2.482184602303761,0.09438907873082768
34,0.6412476259707863,0.03051432440059898,0.0005545497172576574,0.024043827503983373,-2.6036750866431646,0.09905976460777842
35,0.6720381865032975,0.031065838790311773,0.0005484396203847552,0.025198238422508012,-2.727329806440082,0.10381610288656694
36,0.7033772063651461,0.03161123030004376,0.0005425661120384007,0.02637320661524889,-2.85312383718761,0.10865714938912417
37,0.7352588107692898,0.032150998530156016,0.0005369138611488466,0.02756851195329091,-2.981032931614891,0.11358199602518047
38,0.7676773462887834,0.032685187889569534,0.0005314688666935297,0.02878394299521414,-3.1110342635365384,0.11858976981526935
39,0.8006273668721317,0.033214003769543865,0.0005262184099574796,0.030019297218575325,-3.2431054286519156,0.12367962920478702
40,0.8341036211016515,0.033737629356878074,0.0005211508979918733,0.03127438240324576,-3.3772250662700287,0.1288507634977787
41,0.8681010405870125,0.03425635330955856,0.0005162558047722143,0.032549020491656755,-3.513372137664561,0.1341023915413242
42,0.9026147294375734,0.03477027554765755,0.0005115236834107861,0.03384305716058744,-3.651527369363805,0.13943376159786247
43,0.9376399548400195,0.03527943492898089,0.0005069463349105519,0.035156382487966376,-3.791671066011304,0.14484415435389586
44,0.9731721389099797,0.03578414231597549,0.0005025172811201628,0.03648897364372239,-3.9337847757003885,0.15033288821575397
45,1.0092068522320379,0.036284553139864784,0.0004982323398294852,0.0378409779955291,-4.0778506349425925,0.15589933599624572
46,1.0457398099178685,0.036780711809569766,0.0004940916364937209,0.039212867970483956,-4.223852756446433,0.16154295419124054
47,1.0827668716897982,0.037272762654083635,0.0004901012018443396,0.04060571656916423,-4.371774187106325,0.1672633402782786
48,1.120284048558787,0.03776112755815575,0.00048627821991331643,0.04202166872691038,-4.521601981721801,0.17306033456288003
49,1.1582875202616918,0.038245251410273795,0.0004826562949311608,0.0434647153568779,-4.673323705794985,0.1789341968261304
50,1.196773669919954,0.038726311046843875,0.0004792960406341251,0.04494191902071343,-4.8269331642813995,0.18488589447196443
51,1.2357391455507862,0.039204117729951804,0.0004762978522698802,0.04646528317220344,-4.982427492805641,0.1909175672443197
52,1.2751809622439227,0.03967923767334014,0.00047382185508482166,0.048054506104344696,-5.139815084653776,0.19703323945741144
53,1.3150966640923485,0.04015200394391627,0.00047211199172281226,0.04974089919396185,-5.299113992052185,0.20323988560999592
54,1.3554845713066428,0.04062377101377024,0.0004715302903690599,0.05157277790934778,-5.4603652266393965,0.2095489710640663
55,1.3963441451751513,0.04109546036801248,0.0004725956648243823,0.053622634090810806,-5.623632381990262,0.21597861726840858
56,1.437676511293404,0.041569614417369394,0.0004760332572573134,0.05599636624831206,-5.789018397983625,0.22255655023339924
57,1.4794851892095895,0.04204869785695564,0.00048282930542598024,0.05884476385831228,-5.956671955686943,0.22932401104736042
58,1.5217770835436533,0.04253684071642283,0.0004942910436511738,0.06237731154934423,-6.126805063288998,0.23634078906153985
59,1.564563796789792,0.04303951639528236,0.0005121104607042071,0.06687819189665767,-6.299708976698071,0.24369152500369748
60,1.607863326347449,0.043563874729812824,0.0005384254109230824,0.07272413027115121,-6.475770764069466,0.2514933858499546
61,1.6517022067691092,0.04412014087407101,0.0005758741217221086,0.08040345039095342,-6.65549426681622,0.25990514411766696
62,1.6961181517872037,0.04472030523672288,0.000627638832018107,0.09053541631942608,-6.839515509504679,0.26913761416169635
63,1.7411632386365878,0.045381431945656914,0.0006974705568651984,0.10388865134935976,-7.028621218374553,0.2794652775750528
64,1.7869076591222524,0.04612273896142938,0.0007896896625503302,0.12139717498804714,-7.223762144015211,0.29123882057113804
65,1.8334440378483534,0.046969739209146155,0.0009091581421039052,0.14417242193309754,-7.426062120785559,0.3048981676800899
66,1.8808922886030226,0.047952208870327695,0.0010612157752554197,0.17350952662531505,-7.636815668732311,0.32098547209091777
67,1.9294049462084712,0.04910494233456575,0.0012515823910597135,0.21088620236309197,-7.857484729534292,0.34015740221216
68,1.9791728748396678,0.050470183587947304,0.0014862209951616023,0.2579527261548087,-8.089677216993607,0.3631959911709614
69,2.0304312169559697,0.05209410680606652,0.0017711674216158713,0.3165118654546717,-8.33512228126665,0.3910172372112441
70,2.083465411942176,0.054030890872525106,0.0021123269045020265,0.3884880391336054,-8.595622746909726,0.4246766564408588
71,2.1386170827997346,0.056339555243312134,0.0025152490623625567,0.47588557198219306,-8.873011614340953,0.46537101017207755
72,2.19628956517284,0.05908382672004109,0.0029848846638813598,0.5807365408094789,-9.169081227611287,0.5144355300856773
73,2.25695283776996,0.062332872197146116,0.0035253399044421485,0.7050393853980097,-9.48551615032045,0.5733361058357644
74,2.321147608529727,0.06615934466935869,0.004139636247124656,0.8506901108651377,-9.823812030518297,0.6436560821887483
75,2.3894883177584,0.07063725160350032,0.004829490354296695,1.019408499915997,-10.185197751866326,0.7270775433276809
76,2.462664838312943,0.07584315397934915,0.005595121739254694,1.2126622302899293,-10.570545594390524,0.8253571951666315
77,2.54144268335189,0.08185214728229084,0.006435105972535382,1.4315921250696029,-10.98030284474305,0.9402972424243926
78,2.6266615731328726,0.08873721757396424,0.007346273349639887,1.6769419103890293,-11.414411371646338,1.073711867549676
79,2.719232262045862,0.09656730970419858,0.008323667457510453,1.948995822789179,-11.872256022726901,1.2273901868198323
80,2.820131583248392,0.10540470718467532,0.009360561024074343,2.2475271704869293,-12.35261541943089,1.4030567309752937
81,2.9303957282383353,0.11530507659784917,0.010448535312512774,2.571760550325042,-12.853634911991207,1.6023306689261216
82,3.0511118395875676,0.12631566903564817,0.011577617597957612,2.920349854074189,-13.372818408186049,1.8266850575487934
83,3.183408053970241,0.13846999102895552,0.012736471930452353,3.2913735219386453,-13.907040230520806,2.077407474510018
84,3.3284421868155945,0.15179364432071907,0.01391264094596778,3.6823477424596796,-14.45258406285177,2.3555633295258005
85,3.4873892969783236,0.16629631005571355,0.015092819225515086,4.090257512141537,-15.00518442831833,2.6619631004809463
86,3.6614284077691934,0.18197614526371808,0.016263161510821078,4.511604697450267,-15.560109734025218,2.9971345658852395
87,3.851728688083404,0.1988152753540362,0.017409601893447757,4.942471526836467,-16.112247003263747,3.361300956084001
88,4.059435413339323,0.21678392414514747,0.018518177657966817,5.378597320113698,-16.656200774178842,3.7543657095628897
89,4.285656030231178,0.23583441866037447,0.019575350380662826,5.81546576605696,-17.186408118874397,4.175904290359966
90,4.531446642204606,0.25591213592690565,0.02056830250118935,6.248399700692353,-17.6972563714628,4.625163257809817
91,4.797799214893226,0.27694611048900697,0.02148521077494081,6.672660138633546,-18.183200367616337,5.101066563506507
92,5.085629773747837,0.29885360852688336,0.02231548744013878,7.083546256745343,-18.63888678954595,5.602228765599903
93,5.395767831313479,0.32154483520230315,0.02304997210877957,7.47649312630827,-19.059250178088405,6.126974692355346
94,5.728947240856335,0.34491960398952415,0.023681089018623425,7.847164214700442,-19.439638254681313,6.673364846454532
95,6.08579862821891,0.36887102261573546,0.024202947841445166,8.191536013240075,-19.77588777180017,7.239225746191734
96,6.466843506807021,0.39328633683055614,0.024611403972585322,8.505972568668696,-20.06441137680781,7.822184238781559
97,6.872490133329542,0.4180544799226027,0.02490406694199976,8.787288176570485,-20.3022490374849,8.4197048050072
98,7.3030311160056085,0.44305537016953167,0.02508027260539336,9.032797007710869,-20.487121243917272,9.029128789661556
99,7.75864274389824,0.46817594245851524,0.025141011468221564,9.24034895793735,-20.61745973946927,9.647714545879538
100,8.239385967042677,0.49329873519354805,0.025088818169649585,9.408351515585167,-20.692400504174202,10.272677494871374
101,8.74520892304464,0.5183161455590835,0.024927648833994454,9.5357779098304,-20.711802051209816,10.901229197024518
102,9.275950877483806,0.5431221694607302,0.024662715834011806,9.622162216400554,-20.67619728762793,11.530614593713294
103,9.83134742312627,0.5676125347520156,0.024300321133097214,9.667582454389034,-20.58678276739556,12.158146720064876
104,10.411036766747253,0.5916922063420316,0.023847673631394173,9.672632984587537,-20.445352966191876,12.781238298398277
105,11.014566922155847,0.6152793829983239,0.023312702435163146,9.638387732779918,-20.254261023922027,13.397429762385114
106,11.641403623480723,0.638292263488438,0.022703869131390775,9.56635589132837,-20.016330282146555,14.004413378287948
107,12.29093877343597,0.6606649449736324,0.02202999358047464,9.458431822597646,-19.73480632244673,14.600053260682698
108,12.962499246544073,0.6823346332396341,0.021300073935748287,9.31684088110174,-19.413277740909507,15.182401223690077
109,13.655355876463789,0.703248304034787,0.020523137180816775,9.144082820204957,-19.0555835999362,15.749708485657264
110,14.368732468942271,0.7233667886907824,0.019708087304337596,8.942874345105878,-18.66577541420611,16.300433343996446
111,15.101814696741199,0.7426568693347235,0.018863585680151118,8.716092229432704,-18.248005417831337,16.833245068781366
112,15.853758749475821,0.7610842622796099,0.017997933294822133,8.46671825187606,-17.80648410942831,17.347024239988684
113,16.623699628967422,0.7786438160906073,0.01711898462986028,8.197787013770608,-17.345407599123064,17.840859899820316
114,17.410758998844695,0.7953236291768917,0.016234076447574353,7.912337511690737,-16.86890094276805,18.314043869160912
115,18.214052515185696,0.8111118887654811,0.015349969935130048,7.613369133672165,-16.38097479883527,18.766062604846923
116,19.032696582508823,0.8260233386181426,0.014472806491028223,7.30380256500851,-15.885453308328579,19.196587036063306
117,19.865814496023436,0.8400627748983425,0.013608091187222726,6.986445901855376,-15.385980489668327,19.605460694904764
118,20.712541946431113,0.8532504480740499,0.012760684384716114,6.663966107449681,-14.885945276432722,19.99268664043541
119,21.572031877516608,0.8655932859369386,0.011934796759760502,6.338865800987747,-14.388493951855708,20.35841342564737
120,22.44345869912922,0.8771271708951645,0.011134007031898818,6.0134652402688005,-13.896485739905984,20.702920530091262
121,23.326021868860668,0.8878705770598572,0.010361286193472097,5.689889253943647,-13.412492450015634,21.02660354790231
122,24.21894886474407,0.897861340831696,0.009619023515483605,5.370058795168831,-12.938807714135692,21.32995935273385
123,25.12149757866689,0.9071184692288625,0.008909068718310209,5.055686723860475,-12.477422828283125,21.613571570533452
124,26.032958165969543,0.9156890357076009,0.008232759363124842,4.748277384685196,-12.030047358280171,21.87809651239547
125,26.952654390995704,0.9235927578288283,0.007590976842664077,4.4491295118653795,-11.598105587040664,22.12424969609827
126,27.879944511293843,0.9308802617624679,0.006984188587466633,4.159341994061094,-11.182776660234595,22.352793194357897
127,28.81422174487287,0.9375741072403798,0.006412482598250335,3.8798220247393544,-10.784955506437655,22.564523838397573
128,29.754914365545815,0.9437211900831244,0.005875622939299774,3.6112951778122238,-10.405338457530888,22.7602623274592
129,30.701485471099748,0.9493419383943547,0.005373093650007377,3.3543169817562557,-10.044364273653628,22.94084337233215
130,31.6534324679539,0.9544780965597965,0.004904132993033272,3.1092855815728626,-9.702302961045461,23.107106818542885
131,32.61028631426224,0.9591605731884556,0.004467778254024779,2.8764551232285385,-9.379235166306898,23.259889788462825
132,33.57161056120987,0.9634227637889126,0.004062903755652769,2.6559495310607417,-9.075089479892995,23.400019811603553
133,34.53700022967309,0.96729273479923,0.003688252760980504,2.4477763817998266,-8.789631777972318,23.52830890757218
134,35.50608055657036,0.9708077897130352,0.0033424716150420863,2.251840639289071,-8.522523842202645,23.645548570883076
135,36.47850564223034,0.9739885342696653,0.003024134116458299,2.0679580197224823,-8.273325846630541,23.7525056462573
136,37.4539570270185,0.9768633901785506,0.002731772070774241,1.895867838790366,-8.041500620947772,23.849918983387393
137,38.432142222388364,0.9794579369781786,0.0024638841722435245,1.7352451861185614,-7.826434256230641,23.938496808639794
138,39.412793218490485,0.9818009516493476,0.0022189817627804587,1.5857123411677776,-7.627478026961398,24.018914796997134
139,40.395664987563244,0.9839048686899332,0.001995574265833966,1.4468493425212614,-7.443925653660699,24.091814732329905
140,41.380533999548994,0.9857991756234696,0.001792203221384625,1.3182036778403017,-7.2750523827380675,24.157803675706187
141,42.36719676378265,0.9874927542341538,0.0016074429254331335,1.1992990662079706,-7.120093670209826,24.217453644581607
142,43.35546840819127,0.9890214869301417,0.0014399253700503323,1.089643333109791,-6.978293498605126,24.271301668932207
143,44.345181305240466,0.9903857289828011,0.001288327382553689,0.9887353885318362,-6.8488922977394395,24.31985018596094
144,45.33618375186719,0.9915989807041115,0.0011513895259440687,0.8960713395111952,-6.731131918513711,24.363567761653822
145,46.32833870885836,0.9926910848889747,0.00102791183564932,0.8111497752238961,-6.62425989617077,24.402890004182606
146,47.32152260355632,0.9936638178942303,0.000916762061820009,0.7334762736732614,-6.5275543192910845,24.43822069082557
147,48.31562419839212,0.9945281931322825,0.00081687765884908,0.6625671765903007,-6.44030535568163,24.469933065773827
148,49.31054352656001,0.9953016189001573,0.0007272642932321105,0.597952694540993,-6.361855753311829,24.498371195491583
149,50.30619089513029,0.9959887137256374,0.0006469853275348214,0.5391793975562109,-6.291544707437424,24.523851480751087
150,51.30248595504563,0.9965955172219765,0.0005751836340550653,0.485812158075305,-6.2287440982800035,24.546664141311677
151,52.299356836748885,0.9971405035003045,0.0005110535994390375,0.4374355918557171,-6.172877675680866,24.567074757086967
152,53.29673934961473,0.9976126591482171,0.0004538598119552262,0.39365506651733995,-6.123388374135175,24.585325818193834
153,54.294576242918666,0.9980464454883986,0.00040292086112003744,0.35409732205948785,-6.079739733877432,24.601638275001388
154,55.29281652572914,0.9984280069375018,0.000357611540380276,0.3184107676190706,-6.041464217787507,24.616212997230488
155,56.291414842864455,0.9987683569079309,0.00031736561822981457,0.2862654889312921,-6.008078656805083,24.629232259343322
156,57.29033090388953,0.9990564819872816,0.00028165928256385087,0.25735302013885075,-5.979173778314362,24.64086114457586
157,58.289528962025614,0.9993339489255959,0.0002500188855947272,0.23138591991767044,-5.954345994041432,24.651248846652148
158,59.288977339809655,0.999561677872407,0.00022200978833097906,0.208097185137035,-5.933229374477378,24.660530035447433
159,60.28864799834623,0.9997652483662023,0.00019724986088931473,0.18723953722599163,-5.915487122365448,24.668825996698725
160,61.288516147044795,0.9999549632766502,0.00017538049235099606,0.16858461407309733,-5.900785993162572,24.67624578699201
161,62.28855989081085,1.0001318884178545,0.00015608414116741187,0.15192208749681413,-5.888872323112082,24.68288733439294
162,63.288759911768246,1.0002807471209962,0.0001390819903690499,0.13705873428193627,-5.879469711089769,24.68883842254854
163,64.28909918271209,1.0004079342706973,0.00012410680483299075,0.12381747445999736,-5.872333019851794,24.69417763037995
164,65.28956270962411,1.0005173578520044,0.00011093220564362127,0.11203639772361385,-5.867251218205638,24.69897517798358
