S,call,delta,gamma,Vega,theta,rho
1,-0.00025896865150559523,-0.00036648123229697516,-0.00015155502134029438,-5.684228357916068e-06,0.000932227634930366,-2.6878169002010444e-05
2,-0.0006902944378041397,-0.000487961591705971,-0.00010065804226266385,-1.5101225999932313e-05,0.0024675493636230894,-7.140718552480635e-05
3,-0.001224419956785555,-0.0005767577496325338,-7.92297305670861e-05,-2.674452536494641e-05,0.0043606485393074546,-0.00012646359130253151
4,-0.001838488945354168,-0.0006493295267792631,-6.685394263357403e-05,-4.0119118155639705e-05,0.006531305205871585,-0.00018970668732741153
5,-0.002519745294786831,-0.0007118122280838635,-5.860211539990279e-05,-5.494874194328023e-05,0.008934855459663549,-0.0002598301338842257
6,-0.0032597894680257574,-0.0007672815291112633,-5.262185814262216e-05,-7.105148724364727e-05,0.011541928654143496,-0.000335973746458211
7,-0.004052570856332489,-0.0008175213110639401,-4.8044312981124215e-05,-8.829631609197364e-05,0.014331404986356322,-0.000417517904494416
8,-0.004893473758049679,-0.0008636806547723808,-4.4402204647450705e-05,-0.00010658326664390178,0.017287155387735176,-0.0005039899153395921
9,-0.005778833406985584,-0.000906539513595428,-4.1419504180628675e-05,-0.0001258329706405048,0.020396410255196784,-0.0005950144758414683
10,-0.00670565271975156,-0.0009466813184061396,-3.892157107027172e-05,-0.00014598052211056006,0.0236487403444674,-0.0006902846766410063
11,-0.0076714241492697385,-0.0009845156807852806,-3.679194001543484e-05,-0.00016697161382694947,0.027035376281431267,-0.0007895437169076063
12,-0.00867401137176928,-0.001020362613846082,-3.494965240824488e-05,-0.00018875998327762267,0.030548944450481397,-0.0008925728225972484
13,-0.00971156727755313,-0.0010544866195505431,-3.333648437159331e-05,-0.00021130562567056588,0.03418298717000612,-0.0009991828480923615
14,-0.010782475128353343,-0.0010870910074900486,-3.1909379132055715e-05,-0.00023457352776347362,0.03793184672612471,-0.0011092082236215106
15,-0.01188530511630646,-0.0011183692860683436,-3.0635740281420576e-05,-0.00025853272971228247,0.04179059424902487,-0.0012225025264669953
16,-0.01301878151626353,-0.0011484076710421842,-2.9490395767745037e-05,-0.0002831555985689793,0.04575484869456803,-0.0013389350936136855
17,-0.014181757336243871,-0.0011773713948226572,-2.8453540600048566e-05,-0.000308417293006652,0.04982051021729106,-0.001458388497292684
18,-0.015373194407050242,-0.0012053597703287622,-2.7509377276135893e-05,-0.0003342953334289911,0.05398404414463931,-0.0015807564247155568
19,-0.016592147502181114,-0.0012324174666900056,-2.6645119617640933e-05,-0.000360769249942855,0.05824214131811001,-0.0017059420856849192
20,-0.017837751500093747,-0.0012586478734255557,-2.5850324450460427e-05,-0.00038782030482853447,0.06259184663626183,-0.0018338568160553013
21,-0.019109210881005475,-0.00128414431865842,-2.511631805313108e-05,-0.00041543127314927486,0.06703040206224031,-0.001964419221039959
22,-0.0204057910413785,-0.001308897087937133,-2.4435898235419806e-05,-0.00044358624639792565,0.07155519024526491,-0.0020975540344567167
23,-0.021726811042240175,-0.0013330276119050133,-2.3802932090644102e-05,-0.0004722704700747815,0.07616389567643989,-0.0022331915655246504
24,-0.02307163750189429,-0.0013565178494379104,-2.3212290180263384e-05,-0.0005014702335499888,0.08085432740001508,-0.0023712669520656315
25,-0.02443967941177592,-0.001379459393935356,-2.2659554579917973e-05,-0.0005311727434634261,0.08562448076954166,-0.0025117196270768583
26,-0.025830383704198503,-0.001401858837346559,-2.214088214852472e-05,-0.0005613660113146235,0.09047225850433716,-0.0026544929702249083
27,-0.02724323143793126,-0.0014237515680304291,-2.1653004216026783e-05,-0.0005920388045609071,0.09539607333242106,-0.0027995338724301484
28,-0.028677734495598756,-0.0014451708926777052,-2.1193043396594557e-05,-0.0006231805498371767,0.10039418116281063,-0.0029467923294210214
29,-0.030133432708227634,-0.001466122882820553,-2.0758480732963047e-05,-0.0006547812853030521,0.10546494511043392,-0.0030962211830867776
30,-0.03160989133874895,-0.0014867090197823174,-2.0347134047082882e-05,-0.0006868315927111013,0.11060689100728105,-0.0032477759148719083
31,-0.033106698869084815,-0.0015068581799004832,-1.9957023811301156e-05,-0.0007193225619317456,0.11581859013509721,-0.0034014144514871165
32,-0.03462346504548974,-0.0015266388847523515,-1.9586437610685792e-05,-0.0007522457455902409,0.12109867622567272,-0.003557096741116372
33,-0.036159819144822886,-0.0015460403790523713,-1.9233803300044983e-05,-0.0007855931004677186,0.12644582325638254,-0.003714784883868116
34,-0.03771540843072141,-0.0015650872958739015,-1.889777251351532e-05,-0.000819356977509178,0.13185886341138264,-0.003874442792289878
35,-0.03928989677368944,-0.0015838167582993279,-1.8577103466643763e-05,-0.0008535300596509976,0.13733663165038656,-0.004036035916588077
36,-0.04088296341286986,-0.0016022558280148758,-1.8270689405852636e-05,-0.0008881052294268388,0.14287814820157507,-0.00419953147604013
37,-0.04249430183958066,-0.0016204322605961607,-1.7977503791177796e-05,-0.0009230753018896198,0.14848214810458948,-0.004364897953842983
38,-0.044123618782590544,-0.001638147256732836,-1.7696590859372918e-05,-0.0009584323500122505,0.1541476349342652,-0.004532105185237056
39,-0.04577063327025589,-0.0016558351911832858,-1.7427083942589405e-05,-0.0009941658503723194,0.15987367610326153,-0.004701123543573993
40,-0.04743507572985414,-0.00167305995446565,-1.7168066621109368e-05,-0.001030258281950469,0.1656594326993055,-0.00487192357914723
41,-0.049116687049625456,-0.0016900918164974854,-1.6918458925485602e-05,-0.0010666749418811183,0.1715039867067336,-0.005044473929197157
42,-0.05081521745519727,-0.0017068766539063418,-1.6676600933518415e-05,-0.0011033416556088804,0.1774060578996206,-0.0052187372891893125
43,-0.05253042490666983,-0.0017234210586414278,-1.6440029476649798e-05,-0.0011400985871698466,0.18336510435035258,-0.0053946613644967325
44,-0.05426207245278576,-0.0017397736029600708,-1.6204124708707468e-05,-0.0011766088230114047,0.18937953635833615,-0.005572161308753375
45,-0.0560099235036449,-0.0017558236115045034,-1.5960481269949867e-05,-0.0012121859296887472,0.19544796336923298,-0.005751084672031558
46,-0.057773733188859075,-0.0017716647593424284,-1.5693926436188832e-05,-0.001245482879712323,0.20156813301808185,-0.005931145616311361
47,-0.05955323270098071,-0.0017871752688858322,-1.5377300890961898e-05,-0.001273954155986412,0.20773624070935526,-0.006111807235656407
48,-0.06134810159613941,-0.0018024769177227284,-1.4964087122204539e-05,-0.0012929629682190136,0.21394613025638165,-0.006292077734532108
49,-0.06315792022233897,-0.0018171041060721649,-1.437644059354426e-05,-0.0012943564579176448,0.22018745854390787,-0.006470171245304134
50,-0.06498209055716976,-0.00183110748785964,-1.3488677119699588e-05,-0.0012642768712489705,0.22644304903396417,-0.006642963142067248
51,-0.0668197085831795,-0.0018438896243200276,-1.2103950480790715e-05,-0.001179919806235108,0.2326854015022306,-0.006805145106453247
52,-0.06866936481786667,-0.0018550619373947086,-9.923055016569649e-06,-0.0010049028711933694,0.2388708481015911,-0.006947957514880087
53,-0.07052884179492816,-0.0018633213028085294,-6.5044847286088725e-06,-0.0006828779948453434,0.24493230638134023,-0.007057348702654841
54,-0.07239466841100467,-0.0018674430057874503,-1.2148917982734986e-06,-0.00012902329316055727,0.2507689292330362,-0.007111382732682968
55,-0.07426148159952439,-0.0018647937360949385,6.830159354764831e-06,0.0007809011186993287,0.2562323866972527,-0.007076698847058304
56,-0.07612113653159987,-0.0018524334843839085,1.8832436859961277e-05,0.002224141817872005,0.2611136959429494,-0.006903821540837906
57,-0.07796149849632794,-0.001825383594278307,3.6384761592511694e-05,0.004447221953543523,0.2651206379433724,-0.006521121195812717
58,-0.07976484401383975,-0.0017770368510028334,6.154500256649875e-05,0.007784688351442082,0.26785775958382274,-0.005827271570141289
59,-0.08150579694084864,-0.0016988632722814145,9.690766161751796e-05,0.012679833462647672,0.2688018835295125,-0.00468209276419107
60,-0.08314872868507611,-0.0015787857132743,0.00014566600814447384,0.019706548639308874,0.26727588198216523,-0.002895771215177811
61,-0.0846445613287743,-0.0014018043670294134,0.00021165651301058297,0.029591108895027363,0.26242381323537955,-0.00021655093551675717
62,-0.08592692931020074,-0.0011483730633088385,0.00029937985451811144,0.043232353591562966,0.2531882259404483,0.0036828665665733502
63,-0.08690767966522853,-0.0007941834689884075,0.0004139896832289214,0.06171845032307277,0.23828952977478224,0.00921982640650354
64,-0.08747172240596583,-0.000309445524759866,0.000561243748697926,0.08633825238149595,0.21621538587313083,0.016916579781423025
65,-0.0874712804291909,0.0003412631288668422,0.000747412226692612,0.11858521779463393,0.18521544020710934,0.027414805310599363
66,-0.08671963072335882,0.00120046333984547,0.0009791412750037587,0.16015197785594626,0.14330999165146352,0.041488964751951185
67,-0.08498447326602403,0.0023170049212595245,0.001263272285390027,0.21291393718141094,0.08831147896293245,0.060057579558819844
68,-0.08198110807140205,0.0037469208291618372,0.0016066205675568934,0.2789007550293293,0.01785706305046375,0.084191466910577
69,-0.07736564127190801,0.005552192039459669,0.002015719853948328,0.36025517638364757,-0.07053803652290469,0.11511798884145107
70,-0.07072847476825568,0.00780223871621466,0.002496542528263035,0.4591794172758429,-0.17941688690292779,0.15422045076263213
71,-0.06158835795203427,0.01057093926282171,0.003054208938743641,0.5778701125839364,-0.3113032873147681,0.20303192223881936
72,-0.049387291859565974,0.013937558746013323,0.0036926967171557745,0.7184436439335375,-0.46860931871006706,0.26322295937179774
73,-0.03348657411823311,0.017984258179892798,0.004414568768248972,0.8828544248549314,-0.6535415479624884,0.33658296097818785
74,-0.013164256313466896,0.02279474950808713,0.0052207314073064726,1.072809360767226,-0.8679951224790927,0.4249951763873015
75,0.0123857459964464,0.028453400746641933,0.006110238569816823,1.2896821782819918,-1.1134551928040914,0.5304056965858491
76,0.044052695434365484,0.03504214730887245,0.00708015218668645,1.5344315852302766,-1.390897287623094,0.6547870674104839
77,0.0828060887083466,0.04263882788513307,0.008125469315445333,1.8075272582179085,-1.7007028368931643,0.8000974527834491
78,0.1296906536537606,0.051315859894707216,0.00923912121253423,2.1088874511525355,-2.042585128814167,0.9682365282190352
79,0.18581928640276268,0.06113694828169258,0.01041204562929332,2.437831586055844,-2.4155333316899785,1.1609994929398515
80,0.25236400148010574,0.07215624764356221,0.011633333165117499,2.7930505558010355,-2.8177862987366353,1.3800307137074028
81,0.330545039960802,0.08441522481028585,0.012890439420876199,3.172596677650519,-3.2468130684026875,1.6267785816259648
82,0.4216183481497015,0.0979442804638353,0.014169458784629718,3.5738943378524346,-3.69933810806522,1.9024531563743838
83,0.5268616983803107,0.11275669287158507,0.015455443790335366,3.993771419253944,-4.171375511674569,2.2079880659608975
84,0.6475597718401473,0.12885233990900247,0.016732763974403042,4.428510661526608,-4.6582985024912205,2.544008005472831
85,0.784988558847272,0.14621383548352185,0.017985480966764555,4.873919222788681,-5.154920146299702,2.910802934130707
86,0.9403994535037015,0.1648097547324312,0.019197736790266262,5.325413943340074,-5.655603685372768,3.308309841276724
87,1.1150034266880369,0.18459125339376214,0.020354129481869876,5.7781191853545355,-6.154379028622259,3.736102640616856
88,1.309955654208629,0.20549514312406814,0.021440071391598536,6.22697367538394,-6.645072980759892,4.193390470985658
89,1.5263409565850257,0.2274430310755804,0.02244211573909638,6.666842513909366,-7.1214460106716615,4.679024361220474
90,1.7651603748823632,0.2503467766423739,0.023348236612985573,7.0926304432106235,-7.577329341756922,5.191511949986793
91,2.027319165255485,0.27410489433776775,0.024148066000151402,7.499392575125441,-8.006754415035289,5.729039664070789
92,2.313616445626546,0.29860458550245994,0.024833071572416543,7.882439049429202,-8.40408693747463,6.289501567713351
93,2.6247366736312143,0.323729643092463,0.02539667930623324,8.23743050084369,-8.764132086724885,6.870533881064843
94,2.9612430780572594,0.3493560329914658,0.025834339103525394,8.560461725310997,-9.08223976026079,7.469554067562888
95,3.323573108789019,0.3753561239605574,0.026143531774991402,8.848131519907376,-9.354383623261242,8.083803279457236
96,3.712035914885941,0.4015984877980827,0.026323729693800146,9.097597292886395,-9.577233051061285,8.710390942612278
97,4.126811808704046,0.42795980093046637,0.026376303905450982,9.306613668842445,-9.748183682489753,9.346340252802676
98,4.567953627418077,0.45431014505936673,0.026304399005638857,9.473554920789162,-9.865397299080314,9.988633432467253
99,5.035389863064525,0.48052828383049473,0.02611276752162439,9.597421616969193,-9.92779911612729,10.634255676977844
100,5.528929399066601,0.506496800056766,0.025807580756875836,9.677832364052286,-9.935064948507488,11.2802368267495
101,6.048267665532383,0.5321081353315549,0.02539622656172469,9.715001939474277,-9.88760326947613,11.923689964055127
102,6.5929940075178814,0.5572593053670971,0.024887087404223962,9.70970742739663,-9.786492149999049,12.5618462687882
103,7.162600049696403,0.5818559412062996,0.02428932140752238,9.663244205486698,-9.633449771229152,13.192085626512194
104,7.756488837024539,0.6058103796391379,0.0236126463448727,9.577373768734354,-9.430749070560296,13.81196264929052
105,8.37398453338706,0.6290558296484505,0.02286712502908017,9.454265434181153,-9.181157878401791,14.419227919049147
106,9.014342468047944,0.6515263883954958,0.022062966404945428,9.296433946603955,-8.88785027797212,15.011844379664295
107,9.676759332157316,0.6731683654948029,0.021210352514344777,9.106674921488533,-8.554343722266822,15.587998999500028
108,10.360383343641358,0.693933177586814,0.020319262770129853,8.88799991478173,-8.184406397049315,16.146109840153855
109,11.06432421761066,0.7137951563152001,0.019399343429427063,8.643572731834581,-7.781987854116323,16.6848288470689
110,11.787662800085755,0.7327257911526885,0.01845977653402997,8.376648365677752,-7.351135344890736,17.20304071479717
111,12.529460244517553,0.7507122035121938,0.01750919309984056,8.090515734853199,-6.8959352006459085,17.699858196529306
112,13.288766632555376,0.7677401825390007,0.01655558353519382,7.788445139862432,-6.420439646603882,18.174614374544262
113,14.064628962119246,0.7838211857347233,0.015606247139032803,7.473641131579001,-5.928613511230196,18.626852278469386
114,14.85609844655022,0.7989573447275689,0.014667763252873556,7.149201255467474,-5.424291948941118,19.056312386034335
115,15.662237087996157,0.8131611828332552,0.013745960387723244,6.818080918638003,-4.911122708506355,19.46291843193393
116,16.482123505916714,0.8264560591442205,0.012845915904335925,6.483064454432252,-4.392541796960359,19.846761979991356
117,17.314858017440912,0.8388630234890115,0.011971970934609999,6.146742274193429,-3.871747722428154,20.20808618965475
118,18.15956698013401,0.850412895658792,0.011127752053141649,5.8114938753917045,-3.3516716513304345,20.547269121884426
119,19.01540641948078,0.8611330315488885,0.010316198384430209,5.479476348995149,-2.8349749214839903,20.864806961817806
120,19.881564973073317,0.8710557608537783,0.009539607752628854,5.152617951669214,-2.3240293245407884,21.16129745957096
121,20.757266191177273,0.88022069633098,0.008799677218007673,4.832616242484988,-1.8209352248277355,21.437423792036725
122,21.641770239148432,0.8886685165521158,0.0080975565097674,4.520940244212568,-1.327495979808191,21.693939151745667
123,22.534375051234367,0.8964313735759788,0.007433901281217459,4.2188360716011175,-0.8452580857465364,21.93165214325887
124,23.43441698778503,0.903551011788295,0.00680891623972002,3.9273354692603846,-0.37548240072737826,22.15141315016211
125,24.341271049004078,0.9100554976271269,0.006222421546908663,3.6472667087927846,0.08079510394054523,22.35410182098718
126,25.2543506982867,0.9160052272250141,0.005673902450098467,3.379267329126634,0.5227892785342192,22.540615624144774
127,26.173107347093506,0.9214206286856097,0.005162544916004208,3.1237982323339963,0.9499299125081961,22.711859611312942
128,27.097029551396435,0.9263448674801111,0.0046873051928741916,2.8811586893517926,1.3618283389860153,22.868737327463858
129,28.025641967171726,0.9308060100465809,0.004246936242680022,2.651501857826588,1.7582973299568039,23.01214285544972
130,28.958504109358408,0.9348513074769471,0.003840041493674562,2.4348504630822276,2.1392938975850484,23.142954015575864
131,29.89520895531127,0.9384953258972928,0.0034651004199304225,2.2311123397678045,2.5049285312661596,23.262026560466605
132,30.835381430161288,0.9417899349273284,0.003120511635756884,2.040095581730128,2.8554175912631763,23.37018945048896
133,31.778676807783228,0.944747036157878,0.002804621530572149,1.861523094497386,3.1910953879332737,23.46824096512989
134,32.724779057343994,0.9474106832385587,0.002515745052278362,1.6950463868070642,3.512379009862343,23.556945755132116
135,33.67339916174411,0.9497895803178835,0.0022521930276298008,1.540258479302281,3.8197541130102763,23.637032620626993
136,34.62427343073606,0.9519165899973814,0.002012293549569222,1.3967058466590743,4.1137717232686555,23.709192966236966
137,35.57716182815178,0.9538208445292184,0.0017944035590744534,1.2638993356617334,4.395010932967125,23.774079929950172
138,36.53184632953295,0.9555172653108457,0.001596920355950715,1.1413240378388423,4.664099151341361,23.832307988769227
139,37.48812932355647,0.9570207737397141,0.0014183045493609825,1.0284481104250176,4.921676577396283,23.884453059253016
140,38.44583206800405,0.9583605020679897,0.0012570675522738384,0.9247305657922311,5.168394068277848,23.931052998449328
141,39.404793208631766,0.9595371608384085,0.0011117984399788838,0.8296280717701165,5.4049110076448414,23.972608413913573
142,40.36486736717425,0.9605894746300692,0.000981162884272635,0.7426007900335208,5.63186972613039,24.009583734851955
143,41.32592380283775,0.9615096274728785,0.0008638969006824482,0.6631173326354656,5.84994097607705,24.042408531954603
144,42.28784515000868,0.962319646191645,0.0007588135275682362,0.5906588829418524,6.05971024469909,24.071478982534696
145,43.2505262335029,0.9630326758269803,0.0006648084394100806,0.5247225546156642,6.261817731001429,24.09715942874868
146,44.21387296149675,0.9636529796352988,0.0005808473702018091,0.46482405906544955,6.456841816770975,24.1197840832541
147,45.17780129528927,0.9641947684713159,0.0005059824559339177,0.4104997510978592,6.645331040999736,24.139658723854037
148,46.14223629424311,0.9646647924910212,0.0004393255181867062,0.36130811764678583,6.827830389966039,24.157062464524866
149,47.107111233598886,0.96507726254913,0.00038006611191576667,0.31683078180577695,7.004840085755859,24.172249446507973
150,48.07236679235949,0.9654250732182845,0.0003274603699310319,0.27667308387435696,7.176844718514985,24.18545059654775
151,49.037950308065305,0.9657338040369723,0.0002808257448805307,0.24046429906832145,7.344287666910532,24.196875274640202
152,50.00381509501167,0.965986401979535,0.00023954029870765225,0.20785754188068495,7.507585308985654,24.2067129125445
153,50.969919822292155,0.9662091571271958,0.00020304334213960828,0.1785294254474934,7.6671426540997345,24.215134559923964
154,51.93622794795947,0.9664006483944831,0.00017081347891689802,0.15217949588475221,7.823300762765939,24.222294389275586
155,52.90270720556754,0.9665541256254073,0.00014239397216897487,0.12852951424946468,7.97641277472394,24.228331091435958
156,53.86932913939717,0.9666830891319478,0.0001173602015569486,0.10732259294599089,8.126777828465492,24.233369222770303
157,54.83606868473337,0.9667893152709439,9.534055323001667e-05,0.08832224381194465,8.274692930854144,24.23752043547722
158,55.80290378968205,0.9668756462133388,7.598373485961929e-05,0.07131135237870012,8.420416008902976,24.240884668813575
