S,call,delta,gamma,Vega,theta,rho
1,-0.0004616378666333456,-0.0006499144294567702,-0.0002644772907134992,-9.919494036933485e-06,0.0014223063373765277,-4.706913696154481e-05
2,-0.0012245690670030385,-0.0008615285243020188,-0.00017505614251797988,-2.6262801830186436e-05,0.003731553412621158,-0.00012462199618611114
3,-0.002166324996429514,-0.001015797016813702,-0.00013751291542529048,-4.641840227947655e-05,0.006559935277275497,-0.0002202662270677294
4,-0.0032468470585502174,-0.001141658317362071,-0.00011586744515235115,-6.953216751936359e-05,0.009788670785396136,-0.00032994868319740495
5,-0.004443821139937231,-0.0012498932010912567,-0.00010145313245751852,-9.512833592465603e-05,0.013351950881729246,-0.0004514116772220966
6,-0.005742573585569603,-0.0013458785735193102,-9.10172917156088e-05,-0.00012289405793789593,0.017206654503998386,-0.0005831706033007644
7,-0.007132545164318389,-0.0014327402979297243,-8.303590732540445e-05,-0.00015260421020162757,0.02132185070863324,-0.0007241571477450275
8,-0.008605687625308445,-0.0015124846687586402,-7.669006679700274e-05,-0.0001840872068930438,0.02567402835468302,-0.0008735570441488482
9,-0.010155615453430881,-0.0015865034980189208,-7.14963896072951e-05,-0.00021720691244751789,0.030244549573121837,-0.0010307242748544554
10,-0.011777109796313884,-0.001655765715508073,-6.714922043751792e-05,-0.00025185206554804995,0.03501820517587406,-0.0011951308399524296
11,-0.01346580667171666,-0.0017210143900270314,-6.344485962636592e-05,-0.0002879296327317621,0.03998234590629757,-0.0013663352552671646
12,-0.015217990014206992,-0.0017828133067054885,-6.024175797092468e-05,-0.00032536039168418185,0.0451261767536737,-0.001543961558516521
13,-0.01703044829772954,-0.0018416291061584822,-5.7438179559832214e-05,-0.0003640758786463416,0.05044037201806795,-0.0017276848493508188
14,-0.018900371708003894,-0.0018978065646768627,-5.495891419043941e-05,-0.00040401619239363584,0.05591680521388476,-0.0019172208780629527
15,-0.02082527626125642,-0.0019516357280258134,-5.274705588975692e-05,-0.00044512838423896306,0.06154832581095615,-0.002112318339686503
16,-0.022802946449256088,-0.0020033807945907256,-5.0758642983206315e-05,-0.0004873652156150987,0.06732848133184088,-0.0023127531089892073
17,-0.024831390992658554,-0.0020532202674172773,-4.8959140561133374e-05,-0.0005306842419498803,0.07325154094406372,-0.0025183237290643534
18,-0.026908808099822414,-0.002101345833449564,-4.732098952270336e-05,-0.0005750470554767573,0.07931231574276332,-0.0027288479226283964
19,-0.029033557766667065,-0.0021479207301666747,-4.58219046733932e-05,-0.0006204186901032083,0.08550607166757374,-0.002944159787840461
20,-0.03120413938999024,-0.0021930219792909433,-4.4443640156988096e-05,-0.0006667671579793644,0.09182844866451045,-0.003164107518702219
21,-0.03341917345687903,-0.002236814553024935,-4.31711316001282e-05,-0.0007140630577107121,0.0982755522793699,-0.003388551592445332
22,-0.035677386406931605,-0.002279399238802604,-4.1991769714200267e-05,-0.0007622792373013221,0.10484370038810198,-0.0036173630924007934
23,-0.03797759799662554,-0.0023208285987452726,-4.0894948608038995e-05,-0.0008113905344483974,0.11152948911630212,-0.003850422667164843
24,-0.04031871066025098,-0.0023612195532152214,-3.9871673671032504e-05,-0.0008613735527976396,0.11832977028780611,-0.004087619303455581
25,-0.042699700481032186,-0.002400601245566847,-3.891423586144249e-05,-0.0009122064717828615,0.1252415886277003,-0.004328849420240366
26,-0.04511960947343036,-0.0024390718611488893,-3.801601762554174e-05,-0.0009638688648269667,0.13226225670237568,-0.004574016057579122
27,-0.04757753894264612,-0.0024766536044218412,-3.717128806146608e-05,-0.0010163415788827512,0.13938910234378987,-0.00482302837077897
28,-0.05007264373627804,-0.002513405802928581,-3.637502785092117e-05,-0.001069606593365191,0.14661975730745347,-0.005075800752277204
29,-0.05260412724041129,-0.0025494092947830893,-3.562290018521708e-05,-0.0011236469311254327,0.15395205527068967,-0.00533225273761928
30,-0.05517123700118973,-0.0025847109175192173,-3.491103198194345e-05,-0.00117844654749788,0.16138361758066821,-0.00559230817660794
31,-0.05777326087524965,-0.002619241282197926,-3.423606662056322e-05,-0.0012339902702440675,0.16891269494223593,-0.0058558950154219405
32,-0.060409523630030985,-0.002653183922562974,-3.359494578358824e-05,-0.0012902636990080874,0.17653704470488307,-0.006122944891037706
33,-0.06307938392883705,-0.0026864233060308607,-3.298502859738761e-05,-0.001347253166389395,0.18425505565744515,-0.0063933930490034365
34,-0.06578223164667306,-0.0027191526807968103,-3.240387833058911e-05,-0.0014049456503739677,0.19206475021515956,-0.006667177697428083
35,-0.06851748547171627,-0.0027513061273687356,-3.18494032536254e-05,-0.0014633287466481182,0.1999648502337692,-0.0069442400878194635
36,-0.07128459075435933,-0.002782820501812111,-3.1319621895953276e-05,-0.0015223905287797823,0.20795343780299902,-0.007224523906890211
37,-0.07408301757099392,-0.0028139227059575944,-3.081279315031438e-05,-0.001582119394591408,0.21602898081507504,-0.007507975750831174
38,-0.07691225897289716,-0.002844474655816498,-3.0327347022574003e-05,-0.0016425036145767402,0.22419030520914873,-0.007794543992883928
39,-0.07977182939023121,-0.002874553373111155,-2.9861793454655228e-05,-0.0017035302183471268,0.2324358636118795,-0.00808417918024551
40,-0.0826612631542713,-0.002904234491785118,-2.9414747859668466e-05,-0.001765182245649921,0.24076443894127664,-0.00837683324234062
41,-0.08558011308094388,-0.002933377152292138,-2.898472045709255e-05,-0.001827432392076389,0.24917451157957515,-0.008672457857406002
42,-0.08852794901319869,-0.0029621832764448186,-2.857007255774313e-05,-0.001890228885012557,0.257664885261466,-0.008971002298657771
43,-0.09150435612663563,-0.002990566821958751,-2.8168583438015204e-05,-0.001953465645077035,0.2662345038872971,-0.00927240771525506
44,-0.09450893262538544,-0.0030185111354885663,-2.777670898845841e-05,-0.0020169223673843772,0.2748817964914885,-0.009576595379895414
45,-0.09754128613630864,-0.0030461556888017327,-2.738846191507882e-05,-0.002080149674177356,0.28360503251390057,-0.009883443871649966
46,-0.10060102756492398,-0.0030733547651262683,-2.6993368235084247e-05,-0.0021422584926822363,0.2924024272710213,-0.010192745778653256
47,-0.10368776029053035,-0.003100124323918152,-2.6572870709395957e-05,-0.002201549946373449,0.30127087352616044,-0.010504127706534305
48,-0.10680106120242414,-0.0031264137112518853,-2.609505445061444e-05,-0.002254890984210167,0.310205940101671,-0.010816912122263432
49,-0.10994044803822925,-0.0031521861509897775,-2.5506078776826868e-05,-0.0022967015216035502,0.3192000885832158,-0.011129880713584004
50,-0.11310532458984081,-0.0031774041731047475,-2.471812921012173e-05,-0.0023173723939090562,0.32824177542689625,-0.011440892092734465
51,-0.11629489141483833,-0.0032015480544433927,-2.359197823209591e-05,-0.0023008826788295522,0.3373118714899981,-0.011746277923940783
52,-0.11950800460098121,-0.003224324279793578,-2.1913186126765183e-05,-0.0022213366008411173,0.3463798609049107,-0.012039922891310393
53,-0.12274295884101868,-0.0032450452047694256,-1.936139054636854e-05,-0.002038102004595088,0.3553995042704372,-0.012311910485562903
54,-0.1259971636883669,-0.0032626248924749746,-1.547055539230513e-05,-0.0016892150138392292,0.364299548860636,-0.01254658362204175
55,-0.1292666736729218,-0.003275485438436476,-9.581719029316815e-06,-0.001082731875962084,0.37297598620700256,-0.012719856357090718
56,-0.1325455244741907,-0.003280807570060773,-7.863176776368164e-07,-8.576888269051786e-05,0.38127824231182217,-0.012795595270842506
57,-0.13582481932238402,-0.003275518745127215,1.2135753235664737e-05,0.0014889129315576177,0.388996546085707,-0.012720881105432456
58,-0.13909150318967425,-0.003254760350124286,3.0783431081982116e-05,0.003898748335839919,0.3958419592109408,-0.012419990839951376
59,-0.1423267582654485,-0.003211454713270001,5.7201585967892044e-05,0.007489370630331393,0.4014290538867371,-0.011786958305226579
60,-0.14550395387571302,-0.0031367908270851785,9.394362038284143e-05,0.012714233074834214,0.4052539304133518,-0.010676648103113971
61,-0.14858608855212524,-0.0030190600019963654,0.00014412439602873306,0.020154994045396002,0.40667301193231253,-0.008894352923616289
62,-0.15152267233635053,-0.0028429356091486113,0.00021145530521016198,0.030541493380303875,0.40488290775630986,-0.0061840337531315894
63,-0.15424601424409384,-0.0025890373178683035,0.0003002568352283852,0.04476985830462188,0.3989014951688574,-0.0022154550097241987
64,-0.15666690327096888,-0.0022336257843313945,0.0004154406679779399,0.06391704794356246,0.38755604003792854,0.0034294029532810906
65,-0.1586697010024936,-0.0017475021429902426,0.0005624573468088201,0.08925001478393702,0.3694746925075876,0.011270120690853867
66,-0.1601068987879435,-0.0010960385377067894,0.0007472045862599863,0.12222765354230614,0.3430902867362917,0.02194115301806798
67,-0.16079323095269527,-0.00023851753905290707,0.0009758958657846151,0.16449384979078108,0.3066517817451597,0.0362039085086141
68,-0.16049947553294083,0.0008723993749626402,0.001254889706592266,0.21786023503153618,0.25824797578177794,0.05495675406280708
69,-0.1589461130092763,0.002290187484099704,0.0015904832789681578,0.2842777013252473,0.19584705801545255,0.07924207666432093
70,-0.15579704877311698,0.004074379722496246,0.00198867711465045,0.36579630343341885,0.11734351823555755,0.11024955028776649
71,-0.15065363386996683,0.006290221121751927,0.002454919853789317,0.46451384819470865,0.0206233446986559,0.14931484561414576
72,-0.1430492384443269,0.0090082788450907,0.0029938438861343286,0.5825141930589084,-0.09636345610353203,0.19791314536665713
73,-0.13244464122277746,0.012303455476647684,0.003609004154692119,0.7217969981465622,-0.23551995631532208,0.25764702662189887
74,-0.11822449489714427,0.016252498652447045,0.004302634130787242,0.8842013424859019,-0.39851588418127193,0.33022849360644924
75,-0.09969511074451619,0.02093500234279233,0.0050754304554978535,1.0713261742276852,-0.5866940891441352,0.41745521438055205
76,-0.07608377640223565,0.02642944404995795,0.005926379693377282,1.2844509723047153,-0.8009851643064891,0.521181282890637
77,-0.04653977938577982,0.032812823291816784,0.006852636855320116,1.5244602165633696,-1.0418231527475896,0.6432831138061812
78,-0.01013725743850445,0.0401583958795082,0.007849462736030793,1.7917752785469134,-1.3090757956801813,0.7856213225461254
79,0.03412006248130133,0.04853312439434543,0.008910226277705768,2.086297148191675,-1.6019819533419355,0.9499996812746546
80,0.08729223897994655,0.05799728822197814,0.010026473544477721,2.4073630152803003,-1.919117881277188,1.1381224054737848
81,0.15049467317536716,0.06860109702522266,0.011188060120292942,2.7537191510593195,-2.258369447005748,1.3515511456160811
82,0.22488798078650118,0.0803846988972623,0.012383346086608515,3.123511827222841,-2.6169392375319234,1.59166312688197
83,0.31166637241406586,0.09337473572124111,0.01359944113821232,3.514297201690497,-2.9913654775448606,1.859611841262265
84,0.4120447878709364,0.10758568202984264,0.014822496273714236,3.923070255198169,-3.37757093404889,2.1562916431877577
85,0.5272450736702592,0.12301695773153654,0.016038024325260025,4.346312017847742,-3.7709295463983494,2.482307447149168
86,0.6584815247480129,0.13965438805385588,0.0172312433144306,4.780053538584461,-4.16635130839893,2.837950545520051
87,0.806946131109834,0.15746778325720356,0.018387423220689314,5.219954355884515,-4.5583815944105766,3.2231813235361613
88,0.9737938769332164,0.17641294536296925,0.01949223019992452,5.661392667069554,-4.941318809681405,3.6376194141540803
89,1.1601284339557,0.19643031645699693,0.020532052320554328,6.099563980023204,-5.309334794034726,4.080541539575044
90,1.3669885735425074,0.21745041323129044,0.021494294422108595,6.529584786988396,-5.656598656145206,4.550887039111995
91,1.5953355939567238,0.2393898523855853,0.022367640848397485,6.946597721945169,-5.977406858370671,5.047270808167248
92,1.8460420227374665,0.2621529326951588,0.023142271683429527,7.345874746254033,-6.266299590329538,5.568003149680755
93,2.119881810676481,0.2856380909577183,0.023810030769233492,7.722915133199226,-6.51817959607115,6.111115821738621
94,2.41752218576872,0.3097349932090765,0.024364545172517182,8.073535376245111,-6.728411738876616,6.674393423211632
95,2.739517284818606,0.33432872026395444,0.0248012878678594,8.393948589282552,-6.892906379007968,7.255409100204168
96,3.0863036291572965,0.3592964592513681,0.025117599098400945,8.680831485667895,-7.00820255161716,7.851563516636516
97,3.458197461049414,0.38452221406970466,0.025312650473452436,8.931377572429788,-7.071514929180012,8.46012596182888
98,3.8553939104830355,0.40988177296696904,0.025387376405561213,9.143335762658023,-7.0807682828188945,9.07827650171722
99,4.277967919512579,0.43525751891593245,0.025344361160861695,9.315034152086454,-7.034621951618192,9.703148105133508
100,4.725876814209307,0.46053170166260315,0.025187695777972863,9.44538921730409,-6.932466600773068,10.331867753432533
101,5.1989643833011545,0.4855960078486987,0.024922817081218795,9.533901145357682,-6.774411698273752,10.96159565734389
102,5.696966298175993,0.5103450551047217,0.024556319013768757,9.580636387025443,-6.561246124192621,11.589561805891433
103,6.219516691199572,0.5346808329420583,0.024095760142728295,9.58619883732137,-6.294411125651322,12.213099222124766
104,6.766155698139173,0.5585076845449066,0.02354946542659775,9.551691266804774,-5.975925976287044,12.829673429282094
105,7.336337765526321,0.5817519355133527,0.02292632442113529,9.478668780920074,-5.608336728357699,13.436907783326289
106,7.929440524510669,0.6043385791798528,0.02223559899761085,9.369086145936123,-5.194640273487039,14.032604453495521
107,8.544774038491267,0.6262045992855292,0.02148674351332147,9.225240827221981,-4.738214087751658,14.61476098256753
108,9.181590241811332,0.6472959057646221,0.020689230222359356,9.049713516304791,-4.242740203608264,15.181582444512285
109,9.839092400270243,0.6675691111013293,0.019852400274800175,8.845307815565917,-3.7121239415682794,15.731489355808035
110,10.516444440340747,0.6869903756978601,0.01898532545396847,8.614990593818206,-3.150419836117635,16.263121569792816
111,11.212780011986965,0.7055333206551495,0.018096695981739686,8.361834340000485,-2.561768042141921,16.77533843071899
112,11.927211169133368,0.7231767185089666,0.017194718449076163,8.088962645285136,-1.9503158199540849,17.267215570182515
113,12.658836571449726,0.7399179935418942,0.016287042488016823,7.799499728751158,-1.320174192187551,17.73803873774682
114,13.406749130616266,0.7557530601332019,0.015380706450685011,7.496524704535545,-0.6753422709948609,18.187295047145113
115,14.170043043100529,0.7706815630115216,0.01448209269838685,7.183031095339132,-0.019682033780554775,18.614662122917736
116,14.947820169308397,0.784719400570566,0.013596900760859398,6.861891885350246,0.6431514876226174,19.019995500713094
117,15.739195735444744,0.79788167184347,0.012730146821127164,6.535830247571539,1.309706654240017,19.403314765309432
118,16.543303349302388,0.8101929793724594,0.01188616479907978,6.207395905626356,1.976790997559874,19.764788751963636
119,17.359299334337987,0.8216655800197259,0.011068620295873188,5.8789469744091605,2.6414749498826495,20.10472020206322
120,18.18636639771417,0.832336866096739,0.010280538518259164,5.552636997556704,3.301102680097756,20.42353021103338
121,19.02371665747405,0.8422349040415611,0.009524332256205525,5.230406819460853,3.953325133920771,20.72174270750793
122,19.870594061699453,0.851399128976027,0.008801849666895123,4.913980869822865,4.596056157879502,20.999969278534536
123,20.726276238482274,0.8598531664461007,0.008114414065119036,4.604867375110899,5.2275030526516275,21.258894508591197
124,21.59007581990578,0.8676394713802438,0.007462859485940498,4.304362011851026,5.846154138566817,21.499262020263643
125,22.46134128614561,0.8747845114953634,0.006847596232262276,4.013554483606185,6.450768452737066,21.721861340751044
126,23.339457377407467,0.8813429985821131,0.0062686524060495685,3.733337528615266,7.0403302743216045,21.927515740749467
127,24.22384512187759,0.8873401569076123,0.0057257108565522685,3.4644178630571787,7.614092467633782,22.117071050686828
128,25.113961527349428,0.892808316166338,0.0052181699317088714,3.207328614323046,8.171510401666637,22.291385540285088
129,26.009298982865964,0.8977854903946536,0.004745183765919592,2.962442808112087,8.71223910792196,22.45132086304835
130,26.90938441473082,0.9023127134355491,0.004305702177020976,2.7299875361030956,9.236116227384628,22.597734079710104
131,27.813778238751386,0.9064082817644703,0.003898506939492563,2.510058451345998,9.743147799667895,22.73147071232273
132,28.722073147706222,0.9101187359306095,0.003522255269672314,2.3026342988430315,10.23347842021849,22.853358782448648
133,29.633892769905586,0.9134616618666769,0.0031755066487448858,2.1075912253998297,10.707366016049491,22.96420383007813
134,30.54889023143802,0.9164805803152376,0.002856754122149141,1.9247166529545723,11.165195701323682,23.064784806514634
135,31.466746651363266,0.9191852612389084,0.0025644512646749718,1.7537225489761,11.607415117964592,23.155850809963848
136,32.387169595793424,0.9216130081313167,0.0022970302637759232,1.5942579517158606,12.03458239729116,23.238118548363214
137,33.30989151356925,0.9237897558023178,0.002052928635976059,1.4459206645867084,12.447271302562513,23.312270522879427
138,34.23466817313359,0.9257281163854714,0.0018305973270571485,1.308268036126492,12.846138019995124,23.378953788011355
139,35.161277117263225,0.9274543799620005,0.0016285235204804849,1.1808267986523902,13.231847617589665,23.438779280837704
140,36.089516149585315,0.9289966129699678,0.0014452373875428748,1.0631019454976354,13.605082926915202,23.49232161975578
141,37.01920186427369,0.9303484205247514,0.0012793155690360436,0.954584641199574,13.96656372776306,23.540119263287803
142,37.95016822802334,0.9315566984469115,0.0011294035573428118,0.8547592060992315,14.316997720698055,23.582675107292058
143,38.882265221331885,0.9326182492941371,0.0009942065304358039,0.7631091900250908,14.65707342163114,23.62045727153372
144,39.81535754427281,0.9335487050066149,0.0008724969546847205,0.6791225905544707,14.98748858352883,23.653900142761582
145,40.74932339032483,0.9343651186100033,0.0007631173559730087,0.6022962643825736,15.308947354242264,23.683405671803822
146,41.68405329041757,0.9350760166171312,0.0006649843697914548,0.5321395962809561,15.622070748122496,23.70934472395447
147,42.61944902814191,0.9356991625963929,0.0005770868227727988,0.46817747527683196,15.927500385259918,23.732058573955324
148,43.555422626055375,0.9362384645328348,0.0004984772061789045,0.40995265852217244,16.225860832719263,23.751860471676874
149,44.49189540216246,0.936702804210654,0.00042828297353025846,0.3570275689313007,16.517721235231875,23.769037253273947
150,45.428797094955286,0.9370957343435293,0.0003656978009303202,0.30898559511882695,16.80362515799061,23.783850922143298
151,46.366065054847766,0.937431465786176,0.0003099701473274763,0.2654319649053605,17.08411332401738,23.79654031372524
152,47.30364349940363,0.9377146170663764,0.0002604242865800188,0.22599422724312035,17.35964474391949,23.80732262032836
153,48.241482829442845,0.9379530041542239,0.00021642826197876275,0.1903224154631289,17.630698323500837,23.81639498203469
154,49.17953900288077,0.9381519561202367,0.00017741541569193942,0.15808893365942822,17.89769896731741,23.823935977063112
155,50.11777296301457,0.9383114729644149,0.00014286143823483144,0.12898820930473676,18.16105523744227,23.830107050315515
156,51.05615011789537,0.9384379495713802,0.00011229779772747861,0.1027361632566226,18.421117431444145,23.835053900000954
157,51.994639867408196,0.9385367150116508,8.529617900876474e-05,0.07906952223635244,18.67824224177639,23.838907778639392
158,52.933215174714114,0.9386109667275377,6.1462728240258e-05,0.057745017265631304,18.932730228016226,23.841786705602882
159,53.87185217877762,0.9386603494476731,4.045304535793548e-05,0.038538496873741224,19.184895450052863,23.843796671840774
